dac
113
111
114
114
109
110
113
112
113
111
114
114
113
115
114
111
114
111
115
113
113
112
115
113
112
112
114
114
114
114
117
112
112
112
115
116
113
112
112
115
115
115
112
114
114
114
115
114
115
114
114
115
111
113
113
113
114
117
113
117
112
115
116
117
118
119
117
117
121
119
118
119
121
124
125
127
126
128
130
129
132
131
133
133
133
137
136
137
138
138
139
137
137
137
133
133
133
133
134
131
131
133
129
130
125
126
123
123
125
119
122
121
119
117
119
117
118
117
120
116
115
117
117
119
118
117
119
113
114
114
115
113
117
115
113
114
116
117
119
121
116
114
112
116
114
115
115
116
118
116
116
114
113
115
116
119
116
118
115
114
114
115
120
114
118
114
117
116
114
113
111
111
107
104
102
103
107
107
112
122
138
154
175
203
228
233
233
233
233
233
233
233
233
233
233
233
228
198
171
145
123
105
87
76
62
60
55
54
57
61
68
69
77
82
87
95
99
105
105
107
111
113
115
114
117
118
123
122
117
118
116
118
120
122
119
119
116
120
119
120
120
122
119
120
127
121
122
128
131
124
126
128
131
127
129
132
132
131
132
131
134
135
137
136
139
141
141
142
143
144
144
147
148
153
153
153
152
152
158
158
159
157
163
164
162
164
167
168
169
170
171
173
177
170
176
178
179
178
177
181
185
179
185
183
184
182
184
187
186
189
188
186
188
186
186
184
184
182
185
180
183
181
182
181
182
179
173
175
172
172
175
172
168
166
167
163
163
164
164
161
155
158
156
156
157
148
150
151
145
150
147
146
142
144
143
141
139
138
135
136
135
135
135
130
131
134
129
128
129
130
127
129
128
127
126
129
124
120
127
122
123
125
119
119
118
120
122
122
121
118
116
120
119
121
121
120
121
120
120
118
119
119
120
118
120
118
118
120
115
116
116
114
117
120
118
119
120
121
118
121
118
117
117
115
117
118
120
121
116
119
116
119
118
115
120
117
117
116
117
119
118
119
119
121
117
115
120
117
120
119
118
119
122
122
118
118
120
116
119
118
119
116
115
114
116
117
117
122
120
116
119
117
117
118
119
117
120
116
118
123
118
121
118
119
118
117
116
119
116
119
120
118
117
119
117
119
114
117
114
115
120
119
116
115
112
116
122
118
116
118
114
117
118
117
119
118
119
116
119
120
115
116
120
117
120
116
120
117
118
120
116
115
116
118
114
118
116
119
112
116
114
115
117
117
117
117
117
115
118
118
118
118
118
121
117
117
116
115
115
116
118
119
119
117
121
121
120
120
123
123
120
124
125
124
127
125
131
132
130
133
128
132
135
134
138
141
136
137
139
142
137
140
142
135
136
137
136
137
135
130
134
131
133
128
127
128
128
126
121
124
120
122
118
121
118
116
120
118
116
120
116
117
117
115
117
115
115
118
114
111
119
120
115
112
115
115
115
113
116
116
112
117
119
115
114
115
116
112
115
114
119
115
118
113
116
116
113
115
117
114
112
115
113
114
114
111
111
114
112
107
112
109
105
102
104
102
106
105
111
119
135
152
176
197
225
233
233
233
233
233
233
233
233
233
233
233
220
194
166
142
121
99
82
71
65
55
52
55
55
60
63
69
71
79
84
87
91
100
101
103
107
111
106
109
111
116
114
116
112
113
116
115
116
115
116
116
118
118
114
113
119
120
116
115
119
121
123
121
120
120
122
122
121
128
128
127
124
128
129
129
132
131
133
133
134
131
135
135
135
142
143
144
143
146
145
147
145
150
150
149
153
154
159
158
158
160
161
162
161
164
164
164
169
170
167
171
174
175
176
174
173
174
177
178
180
180
178
176
178
179
178
177
179
177
177
178
176
177
176
173
174
177
171
168
168
170
169
168
169
161
165
166
160
160
158
156
156
158
158
152
155
150
152
147
146
145
149
143
139
141
137
136
137
134
134
132
132
131
125
129
125
123
125
124
122
124
119
120
119
120
120
116
119
117
113
112
116
115
115
114
115
116
111
111
111
113
115
111
107
108
110
110
110
111
110
113
109
109
111
107
111
110
110
113
109
114
109
107
110
107
108
110
110
108
111
111
112
110
112
105
108
107
109
108
109
112
109
110
108
109
109
110
111
112
109
110
106
108
110
110
109
110
109
111
109
108
109
103
109
101
105
109
109
106
107
111
107
113
108
109
111
108
106
108
108
106
108
107
110
108
108
108
108
109
106
106
110
107
105
109
109
105
108
109
109
109
105
108
107
107
109
111
111
110
108
108
109
108
108
109
108
106
107
109
108
108
109
107
109
108
105
110
107
104
105
106
108
107
107
109
108
108
108
109
103
107
103
107
107
109
110
108
106
108
106
107
109
106
109
109
105
109
109
107
106
106
106
108
105
108
105
107
108
112
105
110
108
109
108
109
108
111
108
111
108
110
109
112
115
112
113
112
115
113
115
119
122
126
120
125
124
124
127
127
128
127
126
126
131
129
129
130
131
130
127
130
130
127
127
127
126
124
122
121
117
119
114
114
117
116
116
112
109
111
111
110
112
108
109
106
109
108
106
107
107
107
111
107
107
103
105
106
106
109
106
109
107
107
107
107
110
102
103
106
107
108
108
106
109
109
107
109
107
106
108
107
107
110
102
104
104
106
106
104
105
105
111
109
104
103
100
97
98
95
95
91
93
97
103
113
123
145
164
192
218
233
233
233
233
233
233
233
233
233
233
233
215
187
164
133
110
92
78
64
54
49
46
45
53
52
58
60
67
71
73
81
85
88
93
101
101
105
105
107
105
108
109
107
110
110
108
107
107
110
111
109
110
112
112
114
114
110
116
112
115
114
113
111
115
113
118
120
116
119
118
119
122
121
126
122
126
125
128
126
128
129
129
133
134
135
138
139
137
140
139
142
142
148
146
147
151
146
147
154
154
156
154
158
163
162
162
162
163
161
167
169
165
168
168
169
172
168
174
175
173
170
173
177
170
175
173
177
174
176
176
178
174
174
170
175
170
170
170
167
169
170
167
163
164
165
159
159
162
159
158
160
156
155
157
150
148
149
148
144
142
147
142
139
141
138
136
136
132
134
136
132
129
128
127
126
125
127
121
125
122
122
119
123
122
121
115
119
118
114
116
116
116
115
115
117
116
108
113
113
109
113
115
110
113
110
110
114
110
112
107
115
112
110
112
108
113
110
110
110
109
112
111
112
110
111
110
115
107
113
113
109
115
112
112
110
110
110
111
113
111
109
112
112
112
112
110
109
109
107
111
110
110
105
108
113
109
111
108
114
111
111
115
114
110
110
110
112
111
110
114
111
116
111
115
112
113
110
110
112
113
111
109
109
109
108
112
114
111
107
111
111
116
109
111
115
113
113
112
112
113
110
114
109
112
112
111
112
111
110
111
110
113
110
113
110
111
111
115
113
112
113
108
112
116
113
113
113
114
109
109
113
111
115
112
109
110
107
112
112
112
115
115
112
109
114
114
113
115
111
117
111
114
110
111
116
113
115
114
113
116
113
110
112
114
114
110
112
113
113
111
113
113
116
116
114
114
115
114
114
115
116
115
118
120
116
120
121
123
123
121
123
126
129
124
130
133
132
134
132
134
132
132
138
135
136
135
135
137
135
137
137
136
135
136
130
131
132
132
125
126
128
126
124
122
121
122
120
120
119
117
119
123
114
117
115
117
116
117
118
116
118
111
118
116
117
113
114
116
115
116
117
112
117
115
115
113
116
111
117
113
116
115
118
115
114
115
118
117
115
115
113
116
112
117
116
120
114
116
119
118
114
116
115
115
112
111
107
108
107
103
100
105
107
110
121
132
151
174
203
226
233
233
233
233
233
233
233
233
233
233
233
226
203
167
145
120
102
87
70
66
63
56
57
60
61
65
67
78
82
86
93
97
101
107
106
113
110
113
119
118
117
116
117
118
119
119
119
119
117
119
122
118
120
119
121
121
125
123
120
124
122
123
125
124
127
125
126
126
127
131
131
134
136
130
133
132
134
135
135
136
139
138
143
141
149
144
147
145
152
152
152
150
155
154
160
160
160
156
161
165
168
169
165
170
172
168
173
174
174
173
176
177
179
179
180
181
183
182
182
184
180
185
185
185
187
181
181
186
185
185
183
185
185
184
182
178
182
182
180
177
179
178
178
173
173
173
171
167
169
168
166
165
162
164
159
158
158
158
152
151
148
151
147
148
148
145
145
143
144
142
139
139
140
138
133
136
132
136
134
132
131
130
131
128
128
129
126
125
123
123
121
126
127
126
120
124
125
121
122
118
122
119
121
118
121
122
119
118
116
119
118
116
120
118
117
118
121
120
119
120
116
119
119
118
119
117
119
120
113
121
113
117
120
118
116
116
120
115
120
118
116
117
116
120
120
115
117
117
121
116
121
118
116
117
117
116
118
116
114
117
115
117
116
116
122
118
119
115
117
119
116
120
116
118
117
118
117
118
118
117
119
118
118
117
120
118
117
118
121
115
119
114
118
121
119
118
117
118
117
116
117
118
116
116
115
119
119
118
120
118
119
118
118
117
122
117
116
119
118
115
120
117
116
120
119
115
121
119
118
121
118
117
116
119
118
118
116
118
117
115
115
119
112
118
116
120
116
119
117
118
119
116
119
115
118
119
119
121
116
115
115
118
118
117
115
119
115
120
123
118
119
117
114
117
116
115
122
119
120
119
120
122
121
123
122
123
121
121
125
127
125
129
130
127
131
134
135
133
137
139
139
138
138
138
140
140
141
139
140
138
139
139
135
132
137
134
129
129
131
128
126
129
123
123
124
123
123
123
121
121
119
119
118
118
119
118
117
115
117
116
117
120
115
117
118
116
120
115
116
114
115
116
117
116
118
115
115
121
116
114
114
114
117
115
116
115
117
114
113
116
116
116
114
116
114
114
113
118
116
116
117
120
111
112
111
109
107
106
102
103
102
103
106
112
119
138
152
170
197
222
233
233
233
233
233
233
233
233
233
233
233
224
196
168
141
119
100
84
73
65
57
53
55
57
58
65
70
76
83
83
90
95
99
101
103
108
108
111
111
111
114
114
116
119
116
116
113
113
119
114
114
117
117
115
117
120
116
116
121
120
118
117
119
121
124
120
123
125
119
127
123
127
127
130
130
125
129
132
132
134
136
137
136
134
138
141
139
144
146
145
141
145
153
149
148
155
154
158
158
159
160
162
167
165
162
167
169
170
168
173
173
177
172
173
174
174
174
171
176
178
177
182
179
181
179
180
179
181
179
179
178
177
178
181
175
176
177
176
173
167
172
165
171
168
168
163
161
163
161
159
159
162
157
156
155
155
150
145
147
148
143
143
141
144
141
140
138
136
135
131
128
132
131
132
131
130
124
125
125
129
126
124
121
119
122
117
118
118
121
116
112
117
114
115
115
114
116
111
112
114
112
110
114
114
112
108
113
108
112
109
109
110
110
109
112
110
112
111
109
108
107
110
109
105
109
108
113
106
107
112
112
108
108
111
105
106
109
112
108
109
111
113
108
109
113
106
111
107
109
108
107
107
109
111
109
109
110
107
110
110
114
108
108
110
110
108
108
110
107
108
109
110
107
105
105
106
106
108
106
107
107
108
111
110
108
107
107
109
109
107
108
104
109
110
108
112
106
109
108
108
108
108
110
111
108
110
107
109
106
110
112
108
104
107
110
109
108
110
109
110
110
111
108
109
107
107
111
108
109
108
107
108
110
109
104
107
111
107
104
111
109
107
107
110
106
110
108
108
108
107
109
106
104
109
109
108
108
107
109
107
106
107
111
104
108
104
107
107
104
108
107
104
110
111
111
109
109
112
113
112
108
111
112
109
114
118
116
118
117
117
119
118
119
124
125
122
127
126
127
128
130
129
132
130
131
128
134
131
131
126
127
130
127
122
127
123
125
121
121
121
116
115
116
117
112
110
114
111
110
107
109
109
111
107
112
107
107
111
108
106
107
110
110
105
107
107
105
107
107
109
109
106
106
108
106
108
107
105
105
110
106
110
106
107
111
105
103
109
105
107
106
107
105
106
108
105
105
106
104
106
107
105
105
105
103
104
103
98
97
94
94
97
98
99
113
128
143
168
190
215
233
233
233
233
233
233
233
233
233
233
233
218
189
162
134
114
91
78
67
56
50
48
41
49
51
56
63
67
70
78
83
88
92
98
96
101
105
101
106
105
106
106
108
112
106
107
107
113
109
110
109
108
110
116
114
110
113
111
109
115
116
116
114
115
117
117
116
115
119
121
117
122
122
124
125
123
122
125
129
127
128
127
135
134
135
137
137
137
139
139
147
144
143
146
145
151
148
152
154
155
155
156
158
158
159
164
162
162
164
168
168
169
168
171
169
171
174
174
171
172
174
178
171
176
172
174
174
174
174
175
173
171
175
174
174
169
172
171
167
168
167
170
169
161
168
160
163
162
156
158
156
156
154
154
151
149
150
148
147
143
141
140
139
140
139
136
138
136
133
130
134
129
129
127
125
123
126
122
129
120
119
122
123
119
120
115
116
115
113
116
111
113
114
113
115
114
115
114
115
112
113
113
112
111
111
110
112
111
110
109
108
112
111
109
112
109
108
112
109
109
110
112
110
108
111
109
114
110
106
111
114
113
114
108
112
109
110
108
109
109
112
112
111
108
110
109
112
113
112
109
105
107
113
110
109
114
113
111
110
110
111
114
111
112
113
108
112
110
106
107
109
112
111
111
115
108
111
111
110
111
108
114
110
115
111
113
111
111
110
111
112
110
111
110
116
111
114
111
112
109
111
112
115
112
114
113
115
111
116
111
110
109
116
113
111
114
113
116
109
111
111
108
114
111
113
117
111
111
112
114
111
111
114
113
108
110
115
113
111
112
112
114
110
111
113
112
114
110
113
115
114
113
112
111
113
115
113
111
112
113
112
114
114
115
116
115
111
112
113
113
111
113
113
113
114
117
115
120
116
115
116
118
118
122
117
122
121
119
124
126
123
126
124
126
131
130
129
133
132
133
136
133
135
137
139
139
136
139
135
139
133
137
133
137
133
129
129
130
130
126
126
126
124
120
120
121
122
122
120
119
119
116
116
115
114
117
116
117
116
116
116
115
116
114
116
116
114
115
114
114
113
117
117
116
119
115
121
115
116
114
116
117
115
119
116
116
114
116
115
114
114
121
115
113
114
115
117
117
117
114
116
113
113
112
110
113
111
109
106
105
99
105
106
113
122
133
150
174
201
228
233
233
233
233
233
233
233
233
233
233
233
224
197
172
144
121
104
86
76
66
59
57
57
60
60
66
71
78
80
90
94
95
104
109
110
113
113
111
112
117
116
116
118
119
116
118
122
117
121
119
121
122
122
122
119
123
120
123
123
124
124
122
122
127
126
128
127
125
130
128
130
129
134
130
132
134
133
137
140
137
140
135
141
142
142
147
146
147
148
146
149
155
150
154
156
162
161
160
165
162
167
164
170
168
168
171
173
173
176
175
178
179
179
179
181
182
186
184
185
190
185
185
186
183
184
184
186
185
185
187
186
183
182
185
184
178
180
180
181
180
178
177
175
173
172
172
171
166
167
167
165
164
164
159
157
158
159
159
156
151
152
151
150
149
145
146
145
145
141
140
135
138
137
135
136
135
130
134
131
132
128
130
129
129
128
127
124
123
124
125
123
125
123
122
122
123
123
126
120
121
122
121
120
118
119
118
117
118
118
121
121
118
119
116
118
120
121
118
121
116
116
120
122
120
118
114
115
119
118
116
119
119
120
119
121
118
118
120
116
124
119
119
119
122
120
115
121
118
118
116
119
117
118
118
122
122
118
118
118
120
118
117
120
117
118
115
120
122
120
121
117
119
116
118
120
118
115
116
115
119
122
121
114
121
120
115
118
120
119
116
119
114
118
120
118
117
120
120
121
120
120
119
118
118
118
116
116
117
118
121
118
120
120
117
119
117
120
119
116
118
121
117
119
119
116
119
115
117
120
118
117
119
118
118
119
116
118
117
115
116
121
118
115
115
117
121
117
120
118
118
115
119
117
119
116
118
118
117
118
117
116
121
119
116
119
116
115
120
114
119
117
117
119
119
117
120
119
117
119
122
123
122
119
123
124
125
126
126
126
126
125
130
131
133
130
135
139
136
136
138
142
137
140
138
139
140
142
143
140
138
143
136
135
132
137
135
137
128
133
129
129
123
128
126
124
124
121
120
120
116
121
121
117
119
117
118
116
115
119
117
120
117
115
119
117
118
118
115
116
116
113
115
118
116
113
113
119
116
115
115
113
118
115
118
116
118
116
117
117
117
116
115
119
114
115
115
116
115
116
115
112
115
112
110
113
112
110
108
101
100
106
100
106
109
120
133
153
174
198
224
233
233
233
233
233
233
233
233
233
233
233
223
196
167
141
120
99
83
71
64
57
54
55
56
59
64
70
74
80
84
89
97
100
104
106
108
111
113
114
113
117
115
116
116
116
114
117
122
116
117
116
116
120
116
117
115
117
115
120
125
119
117
123
120
124
122
122
123
126
125
125
126
125
129
126
129
132
132
134
134
137
138
138
140
141
140
139
144
145
148
145
146
150
151
149
154
151
154
160
162
158
161
163
167
164
165
170
168
171
168
171
169
171
176
175
175
175
177
178
180
173
177
179
179
180
180
179
178
178
181
177
178
178
180
175
177
177
174
172
171
170
172
169
168
164
163
168
162
160
163
159
159
156
154
153
149
150
150
151
147
141
144
148
143
138
140
136
134
134
134
129
129
131
129
129
125
128
123
128
121
121
123
125
122
121
120
117
118
116
115
118
114
117
113
116
114
117
115
116
112
113
111
112
112
111
110
109
107
110
113
108
108
114
110
111
112
112
108
110
107
115
107
108
108
107
113
115
109
107
106
109
109
108
110
110
110
109
107
111
110
111
111
107
107
108
107
111
110
111
110
110
112
110
109
112
109
109
107
110
111
109
112
105
109
109
108
113
109
108
109
105
107
111
108
107
111
111
110
108
108
107
107
107
107
107
106
109
109
112
107
109
109
108
110
110
109
108
108
106
107
107
106
109
111
107
109
106
108
107
109
107
110
108
107
106
109
110
109
112
111
107
107
109
106
110
109
108
109
111
108
108
111
110
107
108
108
108
105
105
106
106
106
109
107
108
105
107
109
109
106
108
112
108
106
107
108
107
107
105
106
107
107
106
107
108
109
107
108
107
109
109
110
109
109
108
109
111
108
108
110
111
109
111
112
109
113
114
115
119
115
117
114
120
121
122
126
127
126
126
130
128
127
126
129
131
134
130
128
127
130
125
129
128
127
124
125
123
120
124
119
120
112
119
118
114
114
114
111
112
109
109
112
111
107
107
107
109
106
108
109
107
109
107
107
105
109
105
108
107
105
106
109
107
105
107
107
113
107
106
110
103
107
111
107
103
106
110
107
105
105
106
107
109
109
108
104
104
108
104
106
107
104
104
105
105
104
102
99
95
93
93
95
97
98
110
128
144
163
195
218
233
233
233
233
233
233
233
233
233
233
233
218
185
157
136
111
89
78
69
58
49
47
48
50
51
56
62
68
72
78
86
90
93
99
98
104
104
111
103
105
108
108
112
107
110
111
110
107
112
112
111
111
111
111
112
111
110
110
111
113
113
114
115
114
118
116
116
118
115
117
122
117
123
125
122
124
127
125
129
127
128
129
132
135
133
132
134
138
142
141
141
144
144
145
145
151
145
152
151
153
158
155
156
159
161
160
159
162
167
166
168
167
167
173
170
170
174
171
172
174
174
175
179
175
170
176
175
175
175
174
174
175
172
171
178
170
171
167
169
166
166
168
166
165
160
165
158
162
160
158
154
155
152
152
150
145
150
146
144
143
143
139
135
139
138
136
133
134
130
129
129
131
127
126
130
126
125
123
122
118
123
121
119
119
120
115
116
114
120
117
111
112
114
113
111
117
114
114
111
114
111
111
113
108
114
111
113
109
109
108
111
110
109
108
108
110
109
109
113
110
112
109
110
110
106
112
109
111
108
109
108
112
110
110
112
112
111
107
108
108
111
110
107
109
107
110
107
111
111
114
112
109
112
107
108
111
106
110
108
110
108
111
110
113
110
109
110
108
111
112
115
109
110
109
111
111
110
113
109
112
112
111
110
115
109
111
109
114
113
110
112
111
110
112
112
111
111
112
111
111
110
114
109
112
111
115
109
110
109
112
109
110
107
112
110
109
114
109
113
110
115
113
110
110
113
111
111
114
110
112
114
113
112
111
109
110
113
112
112
114
110
112
112
111
115
114
113
116
109
112
113
111
113
110
114
114
113
109
111
114
113
107
115
113
111
115
112
112
114
117
116
114
114
115
111
115
113
115
115
117
116
111
118
119
120
119
124
122
123
125
125
124
122
127
130
129
133
132
136
133
136
136
139
133
136
138
140
137
135
137
137
134
134
135
135
132
130
128
128
126
126
122
126
120
120
121
124
118
117
117
120
111
115
121
117
113
115
115
117
118
116
114
116
113
113
111
112
113
112
115
112
109
113
114
114
118
114
116
115
115
113
115
113
115
114
113
117
116
114
115
115
113
115
114
113
112
114
116
114
120
117
117
116
117
111
106
108
108
105
104
105
103
107
109
119
138
153
173
199
226
233
233
233
233
233
233
233
233
233
233
233
227
197
172
144
123
101
82
74
66
60
57
55
56
62
66
69
78
80
86
96
99
101
105
108
105
111
114
114
116
119
116
115
118
117
118
118
123
115
119
120
118
122
122
121
121
121
122
122
122
124
125
122
123
122
128
127
128
125
132
128
131
133
130
132
134
140
136
140
140
140
138
143
139
147
145
141
147
150
149
153
151
151
155
157
157
162
159
163
164
162
164
167
173
171
168
166
175
174
178
175
178
180
179
180
181
183
182
185
183
181
188
183
184
185
185
184
185
184
185
179
187
183
184
179
180
179
183
178
180
176
175
175
176
169
169
167
167
166
164
164
160
161
164
161
159
155
153
152
153
154
152
151
147
147
145
144
147
139
141
142
136
137
136
135
132
135
134
133
130
131
128
129
133
128
125
127
123
123
123
124
126
125
124
121
122
123
121
121
122
120
121
124
120
123
121
117
118
118
118
119
121
122
120
118
115
119
119
119
123
121
120
117
118
118
117
119
119
116
121
119
115
118
119
120
118
120
119
116
116
120
121
119
121
120
120
117
122
119
118
117
119
115
120
116
119
117
118
117
118
122
121
119
118
120
120
117
118
115
120
122
118
114
119
116
117
119
119
117
117
118
117
116
118
119
118
115
120
113
117
117
118
119
120
117
119
118
115
122
115
119
119
119
117
120
115
118
117
117
119
120
117
120
118
116
